RELAB ID	DL-CMP-023	DL-CMP-028	DL-CMP-024	DL-CMP-020	DL-CMP-021	DL-CMP-061	DL-CMP-022	DL-CMP-003	DL-CMP-026	DL-CMP-004	DL-CMP-025	DL-CMP-001	DL-CMP-064	DL-CMP-065	DL-CMP-002	DL-CMP-027
Wavelength (um)	023 - En30 Fs70	028 - En25 Fs75	024 - En17 Fs83	020 - En17 Fs83	021 - En8 Fs92	061 - Fs100	022 - En75 Fs25	003 - En75 Fs25	026 - En70 Fs30	004 - En50 Fs50	025 - En35 Fs65	001 - En100	064 - En97.5Fs2.5	065 - En90 Fs10	002 - En80 Fs20	027 - En80 Fs20
0.3	0.03257	0.03782	0.03818	0.03898	0.03975	0.03944	0.22241	0.21633	0.16686	0.0725	0.0302	0.54735	0.48647	0.4353	0.1716	0.19757
0.305	0.03243	0.03372	0.03557	0.03391	0.0386	0.04314	0.23132	0.21958	0.17145	0.06791	0.04194	0.54459	0.48942	0.47114	0.17856	0.19919
0.31	0.02899	0.03269	0.0354	0.03291	0.03452	0.03888	0.23587	0.22683	0.17531	0.06731	0.04303	0.54158	0.49628	0.47531	0.18439	0.20501
0.315	0.02886	0.03053	0.03551	0.03284	0.03546	0.03687	0.2502	0.23951	0.18434	0.07085	0.04252	0.5459	0.50956	0.48843	0.19341	0.21591
0.32	0.02889	0.03079	0.03521	0.03356	0.03512	0.03712	0.26505	0.25521	0.19847	0.07436	0.04468	0.55116	0.52384	0.50759	0.20958	0.23259
0.325	0.0278	0.03089	0.03437	0.03431	0.03659	0.03605	0.28496	0.27368	0.21359	0.07907	0.04539	0.55277	0.54348	0.52195	0.22821	0.25238
0.33	0.02845	0.03163	0.03492	0.03508	0.03621	0.03566	0.31303	0.30139	0.23516	0.08704	0.04855	0.55669	0.56195	0.54527	0.25454	0.28048
0.335	0.02877	0.03246	0.03446	0.03707	0.03803	0.03544	0.34223	0.33011	0.26222	0.09739	0.05407	0.55942	0.57026	0.56654	0.28615	0.31161
0.34	0.0301	0.03327	0.03845	0.0389	0.0387	0.03646	0.3722	0.36108	0.29112	0.11077	0.05855	0.56264	0.5809	0.5844	0.3198	0.34583
0.345	0.03097	0.03489	0.04028	0.04194	0.04032	0.03676	0.40423	0.3938	0.32376	0.12625	0.06556	0.56327	0.58646	0.60046	0.35713	0.38136
0.35	0.0329	0.03699	0.04382	0.04526	0.04254	0.0372	0.43658	0.42767	0.35913	0.14782	0.07478	0.56602	0.59107	0.61748	0.39617	0.41993
0.355	0.03595	0.04035	0.04877	0.05011	0.04539	0.03858	0.47014	0.46222	0.39576	0.17324	0.08567	0.56868	0.59569	0.62925	0.43728	0.45757
0.36	0.04046	0.04579	0.05596	0.05676	0.04971	0.04065	0.5027	0.49631	0.43385	0.2048	0.09936	0.57095	0.59956	0.64125	0.47741	0.4962
0.365	0.04794	0.05312	0.06547	0.06522	0.05525	0.04312	0.53192	0.52752	0.47004	0.2391	0.11486	0.57258	0.60251	0.65192	0.5159	0.53024
0.37	0.05728	0.06425	0.0787	0.07635	0.06258	0.04734	0.55491	0.5539	0.50319	0.2754	0.13026	0.57402	0.60427	0.659	0.54753	0.55836
0.375	0.06877	0.0773	0.09318	0.08908	0.07098	0.05283	0.57267	0.57331	0.5285	0.30741	0.14486	0.57599	0.60691	0.66443	0.56889	0.57878
0.38	0.08054	0.09064	0.1082	0.10175	0.07981	0.0588	0.58616	0.58814	0.54837	0.33462	0.1585	0.57729	0.60833	0.66864	0.58388	0.59183
0.385	0.09212	0.10478	0.12358	0.11493	0.08869	0.06646	0.59822	0.6004	0.56559	0.35839	0.17121	0.57694	0.61098	0.67208	0.59632	0.60375
0.39	0.10246	0.11777	0.13729	0.12735	0.09734	0.07416	0.60576	0.60915	0.57853	0.37805	0.18247	0.57812	0.61138	0.67372	0.60261	0.60974
0.395	0.11249	0.12983	0.15004	0.13797	0.10527	0.08078	0.61327	0.61636	0.59032	0.39464	0.19254	0.57949	0.61226	0.6749	0.60775	0.61585
0.4	0.12527	0.14542	0.1656	0.15158	0.1144	0.08858	0.62588	0.62896	0.60773	0.41707	0.20419	0.58155	0.61634	0.68128	0.62278	0.6292
0.405	0.13514	0.15777	0.17762	0.16229	0.12192	0.0959	0.63373	0.6367	0.61884	0.43256	0.21349	0.58176	0.61924	0.68415	0.6299	0.63732
0.41	0.14194	0.16788	0.18729	0.1711	0.12853	0.10154	0.63928	0.64437	0.62906	0.44514	0.22293	0.58276	0.62104	0.68685	0.63727	0.64306
0.415	0.15093	0.17804	0.19709	0.18021	0.13557	0.10739	0.64494	0.6495	0.63706	0.45655	0.23217	0.58287	0.62202	0.68936	0.64006	0.64704
0.42	0.15766	0.18333	0.20559	0.18833	0.14195	0.11312	0.64663	0.65188	0.64032	0.46301	0.23992	0.58435	0.62297	0.69051	0.63853	0.64505
0.425	0.15821	0.18316	0.20777	0.19024	0.14514	0.11637	0.64337	0.64744	0.63481	0.45776	0.24332	0.58498	0.62321	0.69014	0.62522	0.636
0.43	0.15809	0.18306	0.20821	0.1912	0.1467	0.11658	0.6477	0.65175	0.64129	0.46148	0.24631	0.58668	0.62547	0.69206	0.63126	0.64304
0.435	0.16361	0.18972	0.21407	0.19694	0.15024	0.11884	0.6547	0.65952	0.65127	0.47247	0.25123	0.5877	0.62858	0.69703	0.6417	0.65306
0.44	0.16599	0.19287	0.2179	0.20058	0.15311	0.12149	0.65679	0.66264	0.65376	0.47626	0.25424	0.58946	0.63055	0.69896	0.6448	0.65484
0.445	0.16692	0.19419	0.21938	0.20228	0.15473	0.12302	0.65909	0.66389	0.65619	0.47787	0.25599	0.5898	0.63245	0.70152	0.64396	0.65648
0.45	0.16809	0.19572	0.22129	0.20422	0.15642	0.12433	0.6606	0.66664	0.65824	0.47982	0.25747	0.59112	0.63498	0.70333	0.6462	0.65754
0.455	0.17042	0.19878	0.22445	0.20711	0.15862	0.12604	0.66355	0.66871	0.66195	0.48318	0.26006	0.59192	0.63617	0.70547	0.64689	0.66021
0.46	0.17429	0.20435	0.23017	0.2121	0.16214	0.12942	0.66645	0.67364	0.66673	0.49009	0.26453	0.59422	0.63929	0.70762	0.65246	0.66426
0.465	0.17526	0.20505	0.23135	0.21303	0.16373	0.13128	0.6687	0.67418	0.66881	0.4914	0.26697	0.59551	0.64196	0.71066	0.65228	0.66627
0.47	0.17388	0.20254	0.23081	0.2131	0.16451	0.13049	0.67026	0.6769	0.67082	0.49222	0.26954	0.5975	0.64427	0.71225	0.65407	0.66769
0.475	0.17661	0.20495	0.23277	0.21501	0.16644	0.13176	0.6741	0.68168	0.67601	0.49754	0.27274	0.59827	0.64727	0.71648	0.65878	0.67304
0.48	0.176	0.20363	0.23248	0.21509	0.1675	0.13186	0.67501	0.68358	0.67626	0.49564	0.27478	0.59963	0.65014	0.71772	0.66006	0.67341
0.485	0.17924	0.20744	0.23627	0.21858	0.1707	0.13475	0.6787	0.68634	0.68194	0.50063	0.27833	0.6009	0.65281	0.72093	0.66408	0.67937
0.49	0.18451	0.21558	0.2448	0.22612	0.17667	0.13983	0.68185	0.69076	0.68677	0.50783	0.28447	0.60268	0.65569	0.72307	0.66856	0.68263
0.495	0.1964	0.23079	0.25763	0.23826	0.18491	0.14868	0.68677	0.69577	0.69469	0.52269	0.29343	0.60466	0.65874	0.72581	0.67336	0.68979
0.5	0.19956	0.2324	0.2611	0.24216	0.18906	0.15351	0.6858	0.69647	0.69218	0.52184	0.298	0.60646	0.66043	0.72634	0.67134	0.68559
0.505	0.18043	0.20491	0.24238	0.22665	0.18283	0.14819	0.66273	0.6703	0.65386	0.47692	0.28907	0.60795	0.65769	0.71849	0.62512	0.64341
0.51	0.19496	0.2218	0.2521	0.23531	0.18794	0.14201	0.68724	0.69675	0.6931	0.51651	0.30193	0.61013	0.66472	0.7294	0.67127	0.68903
0.515	0.22299	0.25785	0.28242	0.26262	0.20605	0.1632	0.69805	0.70985	0.71287	0.55212	0.31963	0.61195	0.66745	0.73427	0.68824	0.7052
0.52	0.2388	0.27782	0.29977	0.27911	0.21841	0.17736	0.70156	0.71639	0.72008	0.56754	0.33059	0.614	0.66992	0.73581	0.6955	0.71034
0.525	0.24854	0.28829	0.30941	0.2884	0.22634	0.18552	0.70406	0.71856	0.72343	0.57485	0.33762	0.61607	0.6719	0.73761	0.6967	0.71302
0.53	0.25497	0.29518	0.3174	0.29593	0.23323	0.19203	0.70442	0.72074	0.72488	0.57822	0.34365	0.61798	0.67392	0.73829	0.69901	0.71342
0.535	0.26007	0.29963	0.32217	0.301	0.23842	0.19728	0.70525	0.72089	0.72463	0.57948	0.34761	0.61966	0.67496	0.73986	0.69649	0.71382
0.54	0.25979	0.29836	0.32272	0.30261	0.24136	0.19964	0.7034	0.71972	0.72078	0.57508	0.34888	0.62117	0.67542	0.73977	0.69327	0.70938
0.545	0.25699	0.29224	0.3191	0.30043	0.24173	0.19895	0.70229	0.71659	0.71661	0.56836	0.34836	0.62319	0.67685	0.73963	0.68735	0.70611
0.55	0.25772	0.2934	0.32026	0.30173	0.24386	0.19852	0.70199	0.71682	0.71642	0.56877	0.35043	0.62536	0.67749	0.73997	0.68732	0.70525
0.555	0.27071	0.30917	0.33198	0.31271	0.25147	0.20571	0.70757	0.72347	0.72576	0.58339	0.35755	0.62591	0.6791	0.74281	0.69493	0.71451
0.56	0.28333	0.32544	0.34525	0.32538	0.26079	0.21497	0.71122	0.72966	0.73285	0.5952	0.36525	0.62883	0.68189	0.74515	0.70446	0.72098
0.565	0.29458	0.33781	0.35538	0.33467	0.26812	0.22335	0.71511	0.73296	0.73783	0.60469	0.37164	0.62941	0.68352	0.74784	0.70802	0.72609
0.57	0.30169	0.34686	0.36425	0.34309	0.27466	0.22979	0.71706	0.73696	0.74119	0.61128	0.37688	0.63195	0.68519	0.74862	0.71282	0.7291
0.575	0.31009	0.35578	0.37175	0.34945	0.28033	0.23493	0.72011	0.73797	0.74505	0.61775	0.38142	0.63318	0.68726	0.75017	0.71485	0.73295
0.58	0.31799	0.36426	0.37727	0.35576	0.2855	0.2396	0.72163	0.74182	0.74753	0.62334	0.38547	0.63547	0.6879	0.75167	0.71904	0.73425
0.585	0.32466	0.3709	0.38329	0.36195	0.28957	0.24367	0.72439	0.74357	0.75114	0.62811	0.38928	0.63612	0.6897	0.75327	0.72079	0.73875
0.59	0.32984	0.37673	0.38786	0.36684	0.29374	0.2471	0.72598	0.7474	0.75378	0.63283	0.39222	0.63814	0.69085	0.75445	0.72505	0.74119
0.595	0.33529	0.38179	0.39222	0.37128	0.29736	0.24995	0.72872	0.74947	0.75693	0.63694	0.39462	0.63904	0.69187	0.75588	0.72685	0.74396
0.6	0.33831	0.38705	0.39549	0.37463	0.30035	0.25239	0.72976	0.75201	0.75881	0.64077	0.39745	0.64136	0.69324	0.75709	0.73001	0.74639
0.605	0.34226	0.39043	0.39859	0.37788	0.30307	0.25462	0.73197	0.75364	0.76117	0.64391	0.39951	0.64215	0.69419	0.75814	0.7318	0.74925
0.61	0.34542	0.39294	0.40131	0.38067	0.30551	0.25651	0.7327	0.75565	0.76289	0.64628	0.40129	0.64376	0.69437	0.75931	0.73475	0.75071
0.615	0.34889	0.39631	0.40334	0.38319	0.30746	0.25834	0.73494	0.75774	0.76495	0.64972	0.40293	0.64502	0.69619	0.76033	0.73613	0.75316
0.62	0.35168	0.39928	0.4054	0.38534	0.30938	0.25978	0.73572	0.75975	0.76673	0.65316	0.40469	0.64577	0.69706	0.76141	0.73976	0.75464
0.625	0.35491	0.40168	0.40753	0.38768	0.31116	0.26126	0.73803	0.76165	0.76935	0.65558	0.40608	0.64684	0.69875	0.76273	0.74086	0.75801
0.63	0.35667	0.40402	0.4092	0.38957	0.31271	0.26231	0.73892	0.76412	0.77161	0.658	0.40763	0.64831	0.69926	0.76389	0.74454	0.76065
0.635	0.35921	0.40541	0.41029	0.39103	0.31389	0.26328	0.74028	0.76471	0.77295	0.65996	0.40892	0.64906	0.69945	0.76491	0.74571	0.7628
0.64	0.36114	0.40762	0.41099	0.3924	0.31525	0.2642	0.74124	0.76713	0.7738	0.66221	0.40979	0.6505	0.7009	0.76595	0.74855	0.76343
0.645	0.36307	0.40852	0.41253	0.39349	0.31612	0.26471	0.74272	0.76826	0.77562	0.66373	0.41071	0.6519	0.70195	0.76683	0.74976	0.76591
0.65	0.3634	0.40974	0.41264	0.39409	0.31706	0.26492	0.74307	0.76997	0.77607	0.66523	0.41149	0.65336	0.70324	0.76782	0.75213	0.76704
0.655	0.36477	0.40955	0.41316	0.395	0.31785	0.26536	0.74472	0.77112	0.77771	0.66607	0.41264	0.65418	0.70433	0.76825	0.75186	0.76898
0.66	0.36483	0.41071	0.4134	0.39506	0.3185	0.26534	0.74493	0.77228	0.7781	0.66701	0.41281	0.65501	0.70588	0.76937	0.75435	0.76999
0.665	0.36561	0.41024	0.41372	0.3953	0.31897	0.26549	0.74598	0.77252	0.7783	0.66751	0.41366	0.6567	0.70677	0.76971	0.75486	0.77067
0.67	0.36676	0.4102	0.41371	0.3954	0.31951	0.26524	0.74686	0.77385	0.77925	0.6676	0.41402	0.65765	0.70721	0.77069	0.75587	0.77164
0.675	0.36694	0.4096	0.41396	0.39543	0.32004	0.26517	0.74742	0.7738	0.77927	0.66718	0.4143	0.65884	0.70817	0.77121	0.75615	0.77249
0.68	0.36559	0.40976	0.41309	0.3951	0.32016	0.26523	0.74783	0.77418	0.77899	0.66681	0.41401	0.65987	0.7091	0.77236	0.75629	0.77224
0.685	0.36537	0.4082	0.41298	0.39497	0.3203	0.26464	0.74819	0.77497	0.77854	0.66571	0.41439	0.66007	0.71079	0.77251	0.75558	0.77217
0.69	0.3651	0.40733	0.41243	0.39414	0.32045	0.26434	0.74778	0.77503	0.77786	0.66499	0.41437	0.66185	0.71142	0.77265	0.7551	0.77111
0.695	0.36412	0.40529	0.41175	0.39361	0.32041	0.26388	0.74728	0.77407	0.7764	0.66305	0.41446	0.66236	0.71124	0.77264	0.75343	0.76992
0.7	0.36285	0.40433	0.41064	0.39209	0.3198	0.26333	0.74672	0.77284	0.77488	0.66127	0.41418	0.66407	0.71334	0.77246	0.75145	0.76902
0.705	0.3612	0.40182	0.40967	0.39108	0.3197	0.26269	0.74575	0.77079	0.77199	0.65874	0.41411	0.66499	0.71259	0.77165	0.74867	0.76574
0.71	0.35922	0.39945	0.40766	0.38957	0.31931	0.26172	0.74509	0.76931	0.76941	0.65481	0.41351	0.66646	0.71297	0.77187	0.74413	0.76191
0.715	0.35623	0.39496	0.40622	0.38702	0.31846	0.2607	0.74265	0.76744	0.76508	0.64953	0.41284	0.66808	0.71286	0.77058	0.73854	0.75762
0.72	0.35299	0.39137	0.40324	0.38442	0.31754	0.25919	0.74033	0.7632	0.7602	0.64455	0.41238	0.66971	0.71208	0.7695	0.73236	0.75215
0.725	0.34869	0.38549	0.40054	0.38209	0.3166	0.25776	0.73684	0.75778	0.75413	0.63665	0.41075	0.67018	0.71183	0.76762	0.7249	0.74564
0.73	0.34385	0.37904	0.39723	0.37863	0.31492	0.25582	0.73319	0.753	0.74676	0.62921	0.40918	0.67188	0.71063	0.7641	0.71621	0.73668
0.735	0.33768	0.37101	0.3923	0.3739	0.31291	0.25366	0.72771	0.7469	0.73761	0.61912	0.40649	0.67308	0.70937	0.76123	0.7042	0.72594
0.74	0.33019	0.36339	0.38744	0.36948	0.31095	0.25089	0.7217	0.73827	0.72746	0.60811	0.4038	0.6741	0.70778	0.75814	0.69159	0.71489
0.745	0.322	0.35393	0.38113	0.36355	0.30787	0.24779	0.71525	0.72834	0.71575	0.59618	0.40023	0.67502	0.7047	0.75281	0.67738	0.70125
0.75	0.31284	0.3439	0.37477	0.35697	0.30464	0.24461	0.70683	0.71714	0.70447	0.58164	0.39688	0.67582	0.7036	0.74859	0.66136	0.68732
0.755	0.30221	0.33232	0.36663	0.34872	0.30085	0.24093	0.69764	0.7053	0.68886	0.56639	0.39122	0.67709	0.70024	0.74137	0.64437	0.67037
0.76	0.29079	0.32022	0.35851	0.34066	0.29665	0.23703	0.68703	0.69209	0.67443	0.54975	0.38629	0.67802	0.6956	0.7346	0.62559	0.65402
0.765	0.2786	0.3067	0.34937	0.33078	0.29199	0.23198	0.67608	0.67869	0.65752	0.53142	0.3803	0.67901	0.69157	0.72655	0.60618	0.63528
0.77	0.26539	0.29124	0.33882	0.32095	0.28661	0.22695	0.66367	0.6635	0.63998	0.51239	0.37281	0.67979	0.68643	0.71747	0.58624	0.61604
0.775	0.25175	0.27663	0.32787	0.31018	0.28063	0.22125	0.6502	0.64736	0.62197	0.49296	0.36534	0.6815	0.68004	0.70696	0.56493	0.5961
0.78	0.23787	0.26201	0.31566	0.29919	0.2742	0.21503	0.63591	0.63037	0.60269	0.47216	0.35662	0.68168	0.67379	0.69632	0.54326	0.57494
0.785	0.22344	0.24648	0.30335	0.28828	0.26713	0.20845	0.62071	0.61309	0.58306	0.45139	0.34743	0.68252	0.66609	0.68518	0.52205	0.55396
0.79	0.20947	0.23117	0.29009	0.27588	0.25927	0.2011	0.60449	0.59491	0.5631	0.4305	0.33747	0.68317	0.65777	0.67296	0.49987	0.53278
0.795	0.19502	0.21543	0.27628	0.26337	0.25113	0.19314	0.5882	0.57717	0.54323	0.40887	0.32648	0.68351	0.64881	0.66	0.47831	0.51122
0.8	0.18196	0.20355	0.26357	0.25323	0.24327	0.18594	0.57305	0.55995	0.52349	0.38885	0.31615	0.68452	0.64193	0.64869	0.45821	0.49101
0.805	0.16708	0.18711	0.2481	0.23856	0.23287	0.17653	0.55376	0.53964	0.50234	0.36659	0.30321	0.68626	0.63218	0.63305	0.43458	0.46861
0.81	0.15404	0.17173	0.23341	0.22488	0.22294	0.16718	0.5362	0.52006	0.48172	0.34583	0.29067	0.68644	0.62075	0.61976	0.41394	0.44729
0.815	0.14144	0.15871	0.21958	0.21194	0.21268	0.15844	0.51846	0.50141	0.46227	0.32605	0.27846	0.68645	0.60973	0.60524	0.39415	0.42821
0.82	0.12962	0.14591	0.20559	0.19882	0.2025	0.14962	0.50103	0.48201	0.44198	0.30782	0.26585	0.68715	0.59873	0.59038	0.37416	0.40821
0.825	0.11957	0.13412	0.19296	0.18667	0.19277	0.1405	0.48427	0.46564	0.42435	0.28942	0.25351	0.68793	0.58738	0.57766	0.3568	0.38979
0.83	0.10983	0.12369	0.18056	0.17474	0.18277	0.13162	0.46718	0.44812	0.40618	0.27321	0.24129	0.68837	0.57554	0.56227	0.3394	0.37272
0.835	0.1011	0.11399	0.16888	0.16447	0.1737	0.12346	0.45197	0.43169	0.38944	0.25693	0.22955	0.68798	0.56551	0.54943	0.32318	0.35537
0.84	0.09338	0.10717	0.15785	0.15407	0.16395	0.11602	0.43644	0.41639	0.37402	0.24325	0.21824	0.68955	0.5544	0.53668	0.30818	0.34043
0.845	0.08656	0.099	0.14811	0.14483	0.15548	0.10853	0.42205	0.40149	0.35828	0.22964	0.20685	0.69037	0.54378	0.52455	0.29446	0.32552
0.85	0.08044	0.09298	0.13882	0.13634	0.1473	0.1019	0.40874	0.38755	0.34424	0.21747	0.19649	0.68993	0.53381	0.51195	0.28143	0.31249
0.855	0.0746	0.08638	0.12989	0.12795	0.13954	0.09622	0.3962	0.3741	0.33123	0.20645	0.18693	0.68969	0.52026	0.50094	0.26976	0.30022
0.86	0.07022	0.08196	0.12244	0.1205	0.13183	0.08954	0.38391	0.36252	0.31955	0.19643	0.17745	0.6924	0.51346	0.4909	0.25789	0.28939
0.865	0.06595	0.07678	0.11488	0.11402	0.12517	0.08436	0.37301	0.35144	0.30852	0.18653	0.16898	0.69121	0.50255	0.4821	0.24883	0.2787
0.87	0.06248	0.07328	0.10892	0.10833	0.11885	0.07968	0.36187	0.34092	0.29755	0.17865	0.16116	0.6912	0.49537	0.47192	0.23977	0.26976
0.875	0.0591	0.06953	0.10317	0.10312	0.11358	0.07521	0.35308	0.33156	0.28778	0.17089	0.1538	0.69113	0.4891	0.46332	0.23176	0.26126
0.88	0.05595	0.06607	0.09862	0.09751	0.10838	0.07165	0.34447	0.32366	0.28022	0.16391	0.14792	0.69204	0.48301	0.45676	0.22611	0.25378
0.885	0.05374	0.06303	0.09396	0.09435	0.1036	0.06815	0.33759	0.31706	0.27264	0.15831	0.142	0.69177	0.4777	0.45127	0.22057	0.24763
0.89	0.05191	0.06083	0.09001	0.09024	0.09984	0.06465	0.33183	0.31012	0.26627	0.15278	0.13666	0.69311	0.47335	0.44593	0.21425	0.24263
0.895	0.05047	0.05893	0.0861	0.08723	0.09619	0.06244	0.326	0.30438	0.26212	0.14829	0.13221	0.69264	0.46991	0.44218	0.2104	0.23839
0.9	0.04854	0.05579	0.08346	0.08416	0.09311	0.06036	0.32149	0.30029	0.2568	0.14495	0.12833	0.69453	0.46874	0.43891	0.20724	0.23451
0.905	0.04742	0.05438	0.08116	0.08254	0.09054	0.05871	0.31873	0.29704	0.25418	0.14173	0.12521	0.69445	0.46672	0.43864	0.20551	0.23306
0.91	0.04642	0.05469	0.07881	0.08036	0.08792	0.05683	0.31674	0.29523	0.25153	0.13929	0.12259	0.69436	0.46744	0.43731	0.20465	0.23163
0.915	0.04589	0.05339	0.07669	0.07865	0.08617	0.05525	0.31604	0.29374	0.25043	0.13777	0.12005	0.69496	0.46956	0.43836	0.2038	0.23041
0.92	0.04529	0.05265	0.07554	0.07729	0.08413	0.05418	0.31643	0.29366	0.24999	0.13726	0.11893	0.6959	0.47296	0.44115	0.20409	0.23232
0.925	0.04516	0.05208	0.07478	0.07601	0.08323	0.05326	0.31832	0.2954	0.25133	0.13607	0.11775	0.69579	0.47662	0.44457	0.20651	0.23336
0.93	0.04473	0.05207	0.07386	0.07581	0.08206	0.05264	0.32121	0.29785	0.25335	0.13646	0.11728	0.69657	0.48262	0.44929	0.20901	0.23673
0.935	0.04451	0.05183	0.07355	0.07502	0.08154	0.05216	0.32436	0.30261	0.25645	0.1372	0.1173	0.6975	0.48936	0.45501	0.21268	0.24037
0.94	0.04434	0.05293	0.07315	0.07528	0.08129	0.05195	0.33015	0.30696	0.26029	0.13887	0.11779	0.69898	0.49754	0.46236	0.2176	0.24554
0.945	0.04477	0.05302	0.07341	0.075	0.08134	0.05197	0.33664	0.31301	0.26564	0.14077	0.11897	0.69912	0.50737	0.47159	0.2235	0.25229
0.95	0.04577	0.05349	0.07404	0.0753	0.08146	0.05202	0.34404	0.32114	0.27232	0.14405	0.12067	0.70047	0.51668	0.48136	0.2303	0.25988
0.955	0.04691	0.05465	0.07514	0.0763	0.08229	0.05214	0.3528	0.33005	0.27989	0.14758	0.12318	0.70099	0.52817	0.49206	0.23945	0.26917
0.96	0.04803	0.05508	0.07609	0.07765	0.08344	0.05284	0.3639	0.33963	0.28948	0.15296	0.12625	0.70337	0.53998	0.50362	0.24859	0.27906
0.965	0.04955	0.05681	0.07787	0.07934	0.08452	0.05359	0.3748	0.35079	0.29961	0.15804	0.13017	0.70396	0.55326	0.51732	0.25943	0.29058
0.97	0.05121	0.05823	0.07995	0.0815	0.08639	0.05475	0.38836	0.36369	0.31135	0.16496	0.13461	0.70549	0.56653	0.53085	0.27223	0.30301
0.975	0.05321	0.06063	0.08254	0.08333	0.0884	0.05565	0.40234	0.37748	0.32489	0.17239	0.14007	0.70723	0.58043	0.54571	0.28477	0.31727
0.98	0.05482	0.06273	0.08501	0.08626	0.09137	0.05722	0.41733	0.39187	0.33881	0.18118	0.14648	0.70784	0.59296	0.56009	0.30033	0.33293
0.985	0.05744	0.0654	0.08862	0.08949	0.09418	0.059	0.43317	0.40769	0.3549	0.19077	0.15311	0.70959	0.6061	0.57551	0.31569	0.3492
0.99	0.06057	0.06913	0.09274	0.09329	0.09772	0.06101	0.44915	0.42483	0.37045	0.20177	0.16152	0.71199	0.61988	0.59038	0.33255	0.36639
0.995	0.06453	0.07242	0.0977	0.09727	0.10224	0.06356	0.46571	0.44141	0.38687	0.21345	0.16936	0.7128	0.63359	0.60431	0.35074	0.38331
1	0.06909	0.07721	0.10301	0.10223	0.10684	0.06632	0.48319	0.45818	0.40456	0.22665	0.17983	0.71369	0.64514	0.61939	0.36776	0.40269
1.005	0.074	0.08215	0.10921	0.10738	0.11207	0.06978	0.49967	0.47533	0.42221	0.24143	0.1903	0.71479	0.65673	0.63257	0.3866	0.42118
1.01	0.08039	0.08688	0.1161	0.11372	0.11836	0.07368	0.51651	0.49257	0.44053	0.25566	0.20177	0.71539	0.6682	0.64616	0.40559	0.44033
1.015	0.08634	0.09329	0.12412	0.12076	0.12529	0.0778	0.53352	0.51024	0.45876	0.27206	0.2134	0.71761	0.67821	0.65914	0.42548	0.46007
1.02	0.09328	0.10014	0.13258	0.12878	0.13251	0.08315	0.54996	0.52628	0.47722	0.28803	0.22601	0.71848	0.68782	0.67169	0.44371	0.47865
1.025	0.1007	0.10807	0.14179	0.13648	0.14066	0.0882	0.56504	0.54299	0.49467	0.30483	0.23961	0.72017	0.69709	0.68241	0.46209	0.49754
1.03	0.10964	0.11531	0.15128	0.14517	0.14938	0.0946	0.58014	0.56028	0.51267	0.32259	0.25264	0.72134	0.70471	0.69338	0.48149	0.5161
1.035	0.1185	0.12421	0.16172	0.15598	0.15847	0.10093	0.59393	0.57471	0.52939	0.33925	0.26613	0.72255	0.71243	0.70257	0.49862	0.53328
